 
PGA:,  0.32 g
PGV:,  71.96 cm/s
PGD:,  29.33 cm
Arias Intensity:,  139.35 cm/s
Significant duration:,  15.20 s
Bracketed  duration:,  23.64 s
 
 
Damping ratio for spectra:  0.05

 
period [s]	SD. [cm]	PSV [cm/s]	PSA [g]
0.0010	, 0.000	, 0.050	, 0.321
0.1010	, 0.152	, 9.449	, 0.599
0.2010	, 1.314	, 41.078	, 1.309
0.3010	, 2.551	, 53.251	, 1.133
0.4010	, 2.736	, 42.863	, 0.685
0.5010	, 3.087	, 38.716	, 0.495
0.6010	, 4.027	, 42.101	, 0.449
0.7010	, 4.733	, 42.420	, 0.388
0.8010	, 6.924	, 54.315	, 0.434
0.9010	, 8.583	, 59.854	, 0.425
1.0010	, 10.055	, 63.115	, 0.404
1.1010	, 11.977	, 68.351	, 0.398
1.2010	, 13.914	, 72.795	, 0.388
1.3010	, 15.534	, 75.022	, 0.369
1.4010	, 16.864	, 75.631	, 0.346
1.5010	, 18.097	, 75.756	, 0.323
1.6010	, 19.475	, 76.429	, 0.306
1.7010	, 21.148	, 78.118	, 0.294
1.8010	, 23.026	, 80.332	, 0.286
1.9010	, 25.053	, 82.805	, 0.279
2.0010	, 27.188	, 85.371	, 0.273
2.1010	, 32.722	, 97.857	, 0.298
2.2010	, 39.219	, 111.959	, 0.326
2.3010	, 44.492	, 121.491	, 0.338
2.4010	, 48.768	, 127.621	, 0.340
2.5010	, 53.683	, 134.866	, 0.345
2.6010	, 57.353	, 138.546	, 0.341
2.7010	, 59.467	, 138.334	, 0.328
2.8010	, 62.667	, 140.573	, 0.321
2.9010	, 66.602	, 144.251	, 0.318
3.0010	, 69.822	, 146.185	, 0.312
3.1010	, 72.070	, 146.028	, 0.302
3.2010	, 73.318	, 143.915	, 0.288
3.3010	, 73.644	, 140.176	, 0.272
3.4010	, 73.197	, 135.228	, 0.255
3.5010	, 72.085	, 129.369	, 0.237
3.6010	, 70.382	, 122.806	, 0.218
3.7010	, 68.323	, 115.991	, 0.201
3.8010	, 66.053	, 109.188	, 0.184
3.9010	, 66.736	, 107.490	, 0.176
4.0010	, 67.372	, 105.801	, 0.169
4.1010	, 67.830	, 103.923	, 0.162
4.2010	, 68.112	, 101.871	, 0.155
4.3010	, 68.227	, 99.670	, 0.148
4.4010	, 68.190	, 97.353	, 0.142
4.5010	, 68.032	, 94.970	, 0.135
4.6010	, 67.797	, 92.584	, 0.129
4.7010	, 67.525	, 90.251	, 0.123
4.8010	, 67.231	, 87.986	, 0.117
4.9010	, 66.881	, 85.743	, 0.112
5.0010	, 66.447	, 83.483	, 0.107
5.1010	, 65.931	, 81.211	, 0.102
5.2010	, 65.349	, 78.946	, 0.097
5.3010	, 64.722	, 76.714	, 0.093
5.4010	, 64.070	, 74.535	, 0.088
5.5010	, 63.412	, 72.428	, 0.084
5.6010	, 62.705	, 70.342	, 0.080
5.7010	, 61.929	, 68.253	, 0.077
5.8010	, 61.087	, 66.164	, 0.073
5.9010	, 60.184	, 64.082	, 0.070
6.0010	, 59.227	, 62.012	, 0.066
6.1010	, 58.222	, 59.961	, 0.063
6.2010	, 57.177	, 57.934	, 0.060
6.3010	, 56.096	, 55.937	, 0.057
6.4010	, 54.984	, 53.972	, 0.054
6.5010	, 53.847	, 52.042	, 0.051
6.6010	, 52.690	, 50.153	, 0.049
6.7010	, 51.519	, 48.307	, 0.046
6.8010	, 50.337	, 46.504	, 0.044
6.9010	, 49.148	, 44.748	, 0.042
7.0010	, 49.100	, 44.065	, 0.040
7.1010	, 49.176	, 43.513	, 0.039
7.2010	, 49.239	, 42.963	, 0.038
7.3010	, 49.288	, 42.417	, 0.037
7.4010	, 49.324	, 41.874	, 0.036
7.5010	, 49.348	, 41.336	, 0.035
7.6010	, 49.360	, 40.802	, 0.034
7.7010	, 49.361	, 40.273	, 0.033
7.8010	, 49.351	, 39.749	, 0.033
7.9010	, 49.331	, 39.230	, 0.032
8.0010	, 49.302	, 38.717	, 0.031
8.1010	, 49.264	, 38.210	, 0.030
8.2010	, 49.217	, 37.708	, 0.029
8.3010	, 49.163	, 37.212	, 0.029
8.4010	, 49.101	, 36.723	, 0.028
8.5010	, 49.032	, 36.240	, 0.027
8.6010	, 48.956	, 35.763	, 0.027
8.7010	, 48.875	, 35.294	, 0.026
8.8010	, 48.788	, 34.830	, 0.025
8.9010	, 48.695	, 34.374	, 0.025
9.0010	, 48.598	, 33.924	, 0.024
9.1010	, 48.496	, 33.481	, 0.024
9.2010	, 48.426	, 33.069	, 0.023
9.3010	, 48.361	, 32.669	, 0.022
9.4010	, 48.291	, 32.275	, 0.022
9.5010	, 48.216	, 31.886	, 0.021
9.6010	, 48.136	, 31.502	, 0.021
9.7010	, 48.053	, 31.123	, 0.021
9.8010	, 47.966	, 30.750	, 0.020
9.9010	, 47.875	, 30.381	, 0.020
 
acceleration, velocity, displacement and normalized Arias intensity time histories:
 
time [s]	accel. [g]	vel. [cm/s]	displ. [cm]	AI
0.000	-0.0025206	0.0000000	0.0000000	0.0000000
0.002	-0.0025225	-0.0059368	-0.0000071	0.0000002
0.005	-0.0025243	-0.0118779	-0.0000285	0.0000003
0.007	-0.0025261	-0.0178233	-0.0000641	0.0000005
0.010	-0.0025278	-0.0237728	-0.0001141	0.0000007
0.012	-0.0025295	-0.0297263	-0.0001783	0.0000008
0.014	-0.0025311	-0.0356836	-0.0002567	0.0000010
0.017	-0.0025328	-0.0416449	-0.0003495	0.0000012
0.019	-0.0025345	-0.0476100	-0.0004566	0.0000014
0.022	-0.0025362	-0.0535792	-0.0005781	0.0000015
0.024	-0.0025379	-0.0595524	-0.0007138	0.0000017
0.026	-0.0025397	-0.0655297	-0.0008639	0.0000019
0.029	-0.0025414	-0.0715110	-0.0010284	0.0000020
0.031	-0.0025430	-0.0774964	-0.0012072	0.0000022
0.034	-0.0025447	-0.0834857	-0.0014004	0.0000024
0.036	-0.0025463	-0.0894788	-0.0016079	0.0000026
0.038	-0.0025478	-0.0954756	-0.0018299	0.0000027
0.041	-0.0025492	-0.1014758	-0.0020662	0.0000029
0.043	-0.0025504	-0.1074790	-0.0023170	0.0000031
0.046	-0.0025517	-0.1134853	-0.0025821	0.0000032
0.048	-0.0025530	-0.1194946	-0.0028617	0.0000034
0.050	-0.0025543	-0.1255070	-0.0031557	0.0000036
0.053	-0.0025557	-0.1315225	-0.0034641	0.0000038
0.055	-0.0025572	-0.1375414	-0.0037870	0.0000039
0.058	-0.0025587	-0.1435638	-0.0041243	0.0000041
0.060	-0.0025604	-0.1495901	-0.0044761	0.0000043
0.062	-0.0025621	-0.1556203	-0.0048424	0.0000045
0.065	-0.0025638	-0.1616546	-0.0052231	0.0000046
0.067	-0.0025653	-0.1676926	-0.0056183	0.0000048
0.070	-0.0025663	-0.1737335	-0.0060280	0.0000050
0.072	-0.0025667	-0.1797761	-0.0064522	0.0000052
0.074	-0.0025667	-0.1858191	-0.0068910	0.0000053
0.077	-0.0025663	-0.1918617	-0.0073442	0.0000055
0.079	-0.0025659	-0.1979033	-0.0078119	0.0000057
0.082	-0.0025653	-0.2039438	-0.0082941	0.0000059
0.084	-0.0025647	-0.2099829	-0.0087908	0.0000060
0.086	-0.0025646	-0.2160211	-0.0093020	0.0000062
0.089	-0.0025643	-0.2220588	-0.0098277	0.0000064
0.091	-0.0025636	-0.2280953	-0.0103679	0.0000066
0.094	-0.0025631	-0.2341305	-0.0109226	0.0000067
0.096	-0.0025629	-0.2401648	-0.0114917	0.0000069
0.098	-0.0025625	-0.2461985	-0.0120754	0.0000071
0.101	-0.0025620	-0.2522311	-0.0126735	0.0000073
0.103	-0.0025616	-0.2582627	-0.0132861	0.0000074
0.106	-0.0025617	-0.2642939	-0.0139131	0.0000076
0.108	-0.0025624	-0.2703260	-0.0145547	0.0000078
0.110	-0.0025632	-0.2763599	-0.0152107	0.0000079
0.113	-0.0025649	-0.2823968	-0.0158812	0.0000081
0.115	-0.0025666	-0.2884376	-0.0165662	0.0000083
0.118	-0.0025692	-0.2944834	-0.0172657	0.0000085
0.120	-0.0025712	-0.3005347	-0.0179797	0.0000086
0.122	-0.0025732	-0.3065907	-0.0187083	0.0000088
0.125	-0.0025750	-0.3126511	-0.0194514	0.0000090
0.127	-0.0025776	-0.3187167	-0.0202090	0.0000092
0.130	-0.0025809	-0.3247893	-0.0209812	0.0000094
0.132	-0.0025844	-0.3308700	-0.0217680	0.0000095
0.134	-0.0025874	-0.3369583	-0.0225694	0.0000097
0.137	-0.0025909	-0.3430542	-0.0233854	0.0000099
0.139	-0.0025943	-0.3491583	-0.0242161	0.0000101
0.142	-0.0025968	-0.3552692	-0.0250614	0.0000102
0.144	-0.0025990	-0.3613858	-0.0259214	0.0000104
0.146	-0.0026003	-0.3675065	-0.0267961	0.0000106
0.149	-0.0025998	-0.3736281	-0.0276854	0.0000108
0.151	-0.0025991	-0.3797483	-0.0285895	0.0000110
0.154	-0.0025982	-0.3858666	-0.0295082	0.0000111
0.156	-0.0025972	-0.3919827	-0.0304416	0.0000113
0.158	-0.0025963	-0.3980966	-0.0313897	0.0000115
0.161	-0.0025954	-0.4042082	-0.0323525	0.0000117
0.163	-0.0025917	-0.4103145	-0.0333299	0.0000119
0.166	-0.0025849	-0.4164084	-0.0343220	0.0000120
0.168	-0.0025777	-0.4224859	-0.0353287	0.0000122
0.170	-0.0025686	-0.4285441	-0.0363499	0.0000124
0.173	-0.0025586	-0.4345799	-0.0373856	0.0000126
0.175	-0.0025498	-0.4405936	-0.0384358	0.0000127
0.178	-0.0025414	-0.4465869	-0.0395005	0.0000129
0.180	-0.0025326	-0.4525600	-0.0405794	0.0000131
0.182	-0.0025250	-0.4585138	-0.0416727	0.0000132
0.185	-0.0025174	-0.4644497	-0.0427803	0.0000134
0.187	-0.0025083	-0.4703660	-0.0439021	0.0000136
0.190	-0.0024997	-0.4762614	-0.0450380	0.0000137
0.192	-0.0024933	-0.4821392	-0.0461881	0.0000139
0.194	-0.0024885	-0.4880038	-0.0473523	0.0000141
0.197	-0.0024865	-0.4938604	-0.0485305	0.0000142
0.199	-0.0024860	-0.4997141	-0.0497228	0.0000144
0.202	-0.0024875	-0.5055689	-0.0509291	0.0000146
0.204	-0.0024921	-0.5114310	-0.0521495	0.0000147
0.206	-0.0025001	-0.5173079	-0.0533840	0.0000149
0.209	-0.0025113	-0.5232073	-0.0546326	0.0000151
0.211	-0.0025240	-0.5291349	-0.0558955	0.0000152
0.214	-0.0025361	-0.5350917	-0.0571725	0.0000154
0.216	-0.0025485	-0.5410772	-0.0584639	0.0000156
0.218	-0.0025628	-0.5470942	-0.0597697	0.0000157
0.221	-0.0025764	-0.5531440	-0.0610900	0.0000159
0.223	-0.0025895	-0.5592253	-0.0624249	0.0000161
0.226	-0.0026042	-0.5653394	-0.0637743	0.0000163
0.228	-0.0026227	-0.5714925	-0.0651385	0.0000165
0.230	-0.0026420	-0.5776901	-0.0665176	0.0000166
0.233	-0.0026631	-0.5839353	-0.0679115	0.0000168
0.235	-0.0026864	-0.5902327	-0.0693205	0.0000170
0.238	-0.0027095	-0.5965847	-0.0707447	0.0000172
0.240	-0.0027352	-0.6029942	-0.0721842	0.0000174
0.242	-0.0027547	-0.6094569	-0.0736391	0.0000176
0.245	-0.0027710	-0.6159617	-0.0751096	0.0000178
0.247	-0.0027855	-0.6225028	-0.0765958	0.0000180
0.250	-0.0027981	-0.6290758	-0.0780977	0.0000182
0.252	-0.0028048	-0.6356716	-0.0796154	0.0000184
0.254	-0.0028077	-0.6422787	-0.0811489	0.0000186
0.257	-0.0028112	-0.6488933	-0.0826983	0.0000189
0.259	-0.0028147	-0.6555162	-0.0842636	0.0000191
0.262	-0.0028170	-0.6621459	-0.0858448	0.0000193
0.264	-0.0028173	-0.6687786	-0.0874419	0.0000195
0.266	-0.0028145	-0.6754082	-0.0890549	0.0000197
0.269	-0.0028081	-0.6820272	-0.0906839	0.0000199
0.271	-0.0027984	-0.6886272	-0.0923287	0.0000201
0.274	-0.0027866	-0.6952018	-0.0939892	0.0000203
0.276	-0.0027739	-0.7017476	-0.0956656	0.0000205
0.278	-0.0027551	-0.7082564	-0.0973576	0.0000207
0.281	-0.0027318	-0.7147156	-0.0990652	0.0000209
0.283	-0.0027071	-0.7211183	-0.1007882	0.0000211
0.286	-0.0026770	-0.7274565	-0.1025264	0.0000213
0.288	-0.0026385	-0.7337140	-0.1042799	0.0000215
0.290	-0.0025960	-0.7398761	-0.1060482	0.0000217
0.293	-0.0025497	-0.7459336	-0.1078311	0.0000219
0.295	-0.0024988	-0.7518766	-0.1096285	0.0000220
0.298	-0.0024432	-0.7576943	-0.1114400	0.0000222
0.300	-0.0023857	-0.7633789	-0.1132653	0.0000223
0.302	-0.0023299	-0.7689302	-0.1151040	0.0000225
0.305	-0.0022815	-0.7743588	-0.1169560	0.0000226
0.307	-0.0022344	-0.7796748	-0.1188208	0.0000228
0.310	-0.0021839	-0.7848760	-0.1206983	0.0000229
0.312	-0.0021388	-0.7899647	-0.1225881	0.0000230
0.314	-0.0020951	-0.7949488	-0.1244900	0.0000231
0.317	-0.0020517	-0.7998304	-0.1264037	0.0000233
0.319	-0.0020124	-0.8046146	-0.1283291	0.0000234
0.322	-0.0019867	-0.8093224	-0.1302658	0.0000235
0.324	-0.0019680	-0.8139780	-0.1322138	0.0000236
0.326	-0.0019493	-0.8185895	-0.1341728	0.0000237
0.329	-0.0019262	-0.8231517	-0.1361429	0.0000238
0.331	-0.0019106	-0.8276684	-0.1381239	0.0000239
0.334	-0.0018996	-0.8321537	-0.1401157	0.0000240
0.336	-0.0018945	-0.8366201	-0.1421182	0.0000241
0.338	-0.0018879	-0.8410728	-0.1441315	0.0000242
0.341	-0.0018799	-0.8455084	-0.1461554	0.0000243
0.343	-0.0018809	-0.8499356	-0.1481899	0.0000244
0.346	-0.0018952	-0.8543808	-0.1502351	0.0000244
0.348	-0.0019242	-0.8588769	-0.1522910	0.0000245
0.350	-0.0019682	-0.8634590	-0.1543578	0.0000246
0.353	-0.0020216	-0.8681558	-0.1564357	0.0000247
0.355	-0.0020793	-0.8729833	-0.1585251	0.0000249
0.358	-0.0021538	-0.8779665	-0.1606262	0.0000250
0.360	-0.0022371	-0.8831354	-0.1627395	0.0000251
0.362	-0.0023220	-0.8885024	-0.1648655	0.0000252
0.365	-0.0024025	-0.8940640	-0.1670046	0.0000254
0.367	-0.0024819	-0.8998139	-0.1691572	0.0000256
0.370	-0.0025651	-0.9057552	-0.1713239	0.0000257
0.372	-0.0026436	-0.9118869	-0.1735051	0.0000259
0.374	-0.0027057	-0.9181840	-0.1757012	0.0000261
0.377	-0.0027541	-0.9246114	-0.1779125	0.0000263
0.379	-0.0027945	-0.9311433	-0.1801394	0.0000265
0.382	-0.0028207	-0.9377535	-0.1823821	0.0000267
0.384	-0.0028328	-0.9444088	-0.1846407	0.0000269
0.386	-0.0028436	-0.9510911	-0.1869153	0.0000271
0.389	-0.0028505	-0.9577942	-0.1892060	0.0000273
0.391	-0.0028559	-0.9645118	-0.1915127	0.0000276
0.394	-0.0028450	-0.9712229	-0.1938356	0.0000278
0.396	-0.0028232	-0.9778956	-0.1961746	0.0000280
0.398	-0.0027878	-0.9845009	-0.1985294	0.0000282
0.401	-0.0027265	-0.9909924	-0.2009000	0.0000284
0.403	-0.0026554	-0.9973280	-0.2032860	0.0000286
0.406	-0.0025838	-1.0034956	-0.2056870	0.0000288
0.408	-0.0025005	-1.0094807	-0.2081026	0.0000289
0.410	-0.0024176	-1.0152702	-0.2105323	0.0000291
0.413	-0.0023392	-1.0208698	-0.2129756	0.0000293
0.415	-0.0022709	-1.0262968	-0.2154322	0.0000294
0.418	-0.0022184	-1.0315817	-0.2179017	0.0000295
0.420	-0.0021716	-1.0367496	-0.2203837	0.0000297
0.422	-0.0021258	-1.0418085	-0.2228780	0.0000298
0.425	-0.0020793	-1.0467587	-0.2253842	0.0000299
0.427	-0.0020447	-1.0516135	-0.2279023	0.0000300
0.430	-0.0020212	-1.0563999	-0.2304319	0.0000301
0.432	-0.0020036	-1.0611379	-0.2329730	0.0000302
0.434	-0.0019974	-1.0658479	-0.2355253	0.0000303
0.437	-0.0019951	-1.0705479	-0.2380890	0.0000304
0.439	-0.0019983	-1.0752490	-0.2406640	0.0000305
0.442	-0.0020088	-1.0799661	-0.2432502	0.0000307
0.444	-0.0020269	-1.0847170	-0.2458478	0.0000308
0.446	-0.0020500	-1.0895163	-0.2484569	0.0000309
0.449	-0.0020715	-1.0943681	-0.2510776	0.0000310
0.451	-0.0020846	-1.0992606	-0.2537099	0.0000311
0.454	-0.0020961	-1.1041821	-0.2563541	0.0000312
0.456	-0.0020979	-1.1091192	-0.2590100	0.0000313
0.458	-0.0020827	-1.1140406	-0.2616778	0.0000314
0.461	-0.0020618	-1.1189195	-0.2643574	0.0000316
0.463	-0.0020351	-1.1237425	-0.2670486	0.0000317
0.466	-0.0020006	-1.1284933	-0.2697513	0.0000318
0.468	-0.0019598	-1.1331555	-0.2724652	0.0000319
0.470	-0.0019161	-1.1377181	-0.2751903	0.0000320
0.473	-0.0018791	-1.1421859	-0.2779262	0.0000321
0.475	-0.0018570	-1.1465840	-0.2806727	0.0000322
0.478	-0.0018416	-1.1509380	-0.2834297	0.0000323
0.480	-0.0018363	-1.1552676	-0.2861972	0.0000324
0.482	-0.0018297	-1.1595832	-0.2889750	0.0000324
0.485	-0.0018220	-1.1638821	-0.2917631	0.0000325
0.487	-0.0018158	-1.1681645	-0.2945616	0.0000326
0.490	-0.0018130	-1.1724362	-0.2973703	0.0000327
0.492	-0.0018153	-1.1767074	-0.3001893	0.0000328
0.494	-0.0018232	-1.1809907	-0.3030185	0.0000329
0.497	-0.0018358	-1.1852982	-0.3058581	0.0000330
0.499	-0.0018496	-1.1896367	-0.3087080	0.0000331
0.502	-0.0018585	-1.1940019	-0.3115684	0.0000332
0.504	-0.0018525	-1.1983705	-0.3144392	0.0000332
0.506	-0.0018234	-1.2026978	-0.3173205	0.0000333
0.509	-0.0017838	-1.2069443	-0.3202121	0.0000334
0.511	-0.0017338	-1.2110852	-0.3231137	0.0000335
0.514	-0.0016761	-1.2150992	-0.3260251	0.0000336
0.516	-0.0016126	-1.2189707	-0.3289460	0.0000336
0.518	-0.0015296	-1.2226698	-0.3318760	0.0000337
0.521	-0.0014323	-1.2261565	-0.3348146	0.0000338
0.523	-0.0013385	-1.2294183	-0.3377613	0.0000338
0.526	-0.0012704	-1.2324895	-0.3407155	0.0000339
0.528	-0.0012296	-1.2354324	-0.3436771	0.0000339
0.530	-0.0012095	-1.2383037	-0.3466455	0.0000340
0.533	-0.0012067	-1.2411479	-0.3496209	0.0000340
0.535	-0.0012306	-1.2440171	-0.3526031	0.0000340
0.538	-0.0012659	-1.2469560	-0.3555922	0.0000341
0.540	-0.0013116	-1.2499903	-0.3585886	0.0000341
0.542	-0.0013630	-1.2531388	-0.3615923	0.0000342
0.545	-0.0014160	-1.2564103	-0.3646038	0.0000342
0.547	-0.0014858	-1.2598262	-0.3676233	0.0000343
0.550	-0.0015677	-1.2634209	-0.3706512	0.0000343
0.552	-0.0016690	-1.2672311	-0.3736880	0.0000344
0.554	-0.0017743	-1.2712845	-0.3767342	0.0000345
0.557	-0.0018914	-1.2755997	-0.3797904	0.0000346
0.559	-0.0020212	-1.2802056	-0.3828574	0.0000347
0.562	-0.0021443	-1.2851093	-0.3859358	0.0000348
0.564	-0.0022736	-1.2903101	-0.3890263	0.0000349
0.566	-0.0023885	-1.2957983	-0.3921296	0.0000351
0.569	-0.0024988	-1.3015516	-0.3952464	0.0000352
0.571	-0.0025801	-1.3075306	-0.3983773	0.0000354
0.574	-0.0026502	-1.3136877	-0.4015228	0.0000356
0.576	-0.0027207	-1.3200104	-0.4046832	0.0000358
0.578	-0.0027939	-1.3265022	-0.4078590	0.0000360
0.581	-0.0028512	-1.3331476	-0.4110506	0.0000362
0.583	-0.0029022	-1.3399205	-0.4142583	0.0000364
0.586	-0.0029636	-1.3468258	-0.4174824	0.0000366
0.588	-0.0030216	-1.3538717	-0.4207232	0.0000369
0.590	-0.0030603	-1.3610314	-0.4239811	0.0000371
0.593	-0.0030853	-1.3682661	-0.4272563	0.0000374
0.595	-0.0030868	-1.3755319	-0.4305488	0.0000376
0.598	-0.0030787	-1.3827900	-0.4338588	0.0000379
0.600	-0.0030569	-1.3900129	-0.4371862	0.0000381
0.602	-0.0030162	-1.3971622	-0.4405308	0.0000384
0.605	-0.0029528	-1.4041888	-0.4438924	0.0000386
0.607	-0.0028690	-1.4110422	-0.4472707	0.0000388
0.610	-0.0027715	-1.4176823	-0.4506652	0.0000390
0.612	-0.0026808	-1.4241008	-0.4540753	0.0000392
0.614	-0.0026130	-1.4303327	-0.4575006	0.0000394
0.617	-0.0025365	-1.4363947	-0.4609407	0.0000396
0.619	-0.0024601	-1.4422767	-0.4643951	0.0000398
0.622	-0.0023617	-1.4479529	-0.4678634	0.0000399
0.624	-0.0022251	-1.4533525	-0.4713449	0.0000400
0.626	-0.0020934	-1.4584361	-0.4748391	0.0000402
0.629	-0.0019342	-1.4631773	-0.4783450	0.0000403
0.631	-0.0017739	-1.4675424	-0.4818619	0.0000404
0.634	-0.0016442	-1.4715661	-0.4853888	0.0000404
0.636	-0.0015305	-1.4753033	-0.4889251	0.0000405
0.638	-0.0014564	-1.4788195	-0.4924700	0.0000406
0.641	-0.0013934	-1.4821744	-0.4960232	0.0000406
0.643	-0.0013610	-1.4854168	-0.4995843	0.0000407
0.646	-0.0013534	-1.4886122	-0.5031532	0.0000407
0.648	-0.0013484	-1.4917927	-0.5067296	0.0000408
0.650	-0.0013527	-1.4949724	-0.5103138	0.0000408
0.653	-0.0013755	-1.4981840	-0.5139055	0.0000409
0.655	-0.0014241	-1.5014798	-0.5175051	0.0000409
0.658	-0.0015013	-1.5049236	-0.5211128	0.0000410
0.660	-0.0016041	-1.5085793	-0.5247290	0.0000410
0.662	-0.0017170	-1.5124888	-0.5283543	0.0000411
0.665	-0.0018199	-1.5166524	-0.5319893	0.0000412
0.667	-0.0019269	-1.5210632	-0.5356345	0.0000413
0.670	-0.0020478	-1.5257422	-0.5392907	0.0000414
0.672	-0.0021582	-1.5306935	-0.5429584	0.0000415
0.674	-0.0022693	-1.5359056	-0.5466383	0.0000416
0.677	-0.0023917	-1.5413926	-0.5503311	0.0000418
0.679	-0.0025002	-1.5471512	-0.5540374	0.0000420
0.682	-0.0025940	-1.5531480	-0.5577577	0.0000421
0.684	-0.0026910	-1.5593695	-0.5614927	0.0000423
0.686	-0.0028003	-1.5658338	-0.5652430	0.0000425
0.689	-0.0029051	-1.5725502	-0.5690090	0.0000427
0.691	-0.0030142	-1.5795185	-0.5727915	0.0000430
0.694	-0.0031076	-1.5867251	-0.5765910	0.0000432
0.696	-0.0032011	-1.5941517	-0.5804081	0.0000435
0.698	-0.0033128	-1.6018198	-0.5842432	0.0000438
0.701	-0.0034211	-1.6097469	-0.5880971	0.0000441
0.703	-0.0034959	-1.6178896	-0.5919703	0.0000444
0.706	-0.0035462	-1.6261796	-0.5958632	0.0000447
0.708	-0.0035909	-1.6345814	-0.5997761	0.0000450
0.710	-0.0036210	-1.6430712	-0.6037093	0.0000454
0.713	-0.0036651	-1.6516483	-0.6076629	0.0000457
0.715	-0.0037190	-1.6603408	-0.6116373	0.0000461
0.718	-0.0037721	-1.6691593	-0.6156327	0.0000465
0.720	-0.0038041	-1.6780780	-0.6196494	0.0000469
0.722	-0.0038060	-1.6870366	-0.6236875	0.0000472
0.725	-0.0037972	-1.6959870	-0.6277472	0.0000476
0.727	-0.0037328	-1.7048513	-0.6318282	0.0000480
0.730	-0.0036403	-1.7135308	-0.6359302	0.0000484
0.732	-0.0035306	-1.7219724	-0.6400528	0.0000487
0.734	-0.0034206	-1.7301553	-0.6441954	0.0000490
0.737	-0.0033324	-1.7381049	-0.6483573	0.0000493
0.739	-0.0032420	-1.7458443	-0.6525380	0.0000496
0.742	-0.0031172	-1.7533304	-0.6567370	0.0000499
0.744	-0.0029770	-1.7605045	-0.6609536	0.0000501
0.746	-0.0028470	-1.7673605	-0.6651871	0.0000503
0.749	-0.0027205	-1.7739145	-0.6694366	0.0000506
0.751	-0.0026301	-1.7802132	-0.6737016	0.0000507
0.754	-0.0025740	-1.7863394	-0.6779814	0.0000509
0.756	-0.0025475	-1.7923685	-0.6822759	0.0000511
0.758	-0.0025746	-1.7983981	-0.6865848	0.0000513
0.761	-0.0026252	-1.8045193	-0.6909083	0.0000515
0.763	-0.0026425	-1.8107205	-0.6952466	0.0000516
0.766	-0.0026146	-1.8169092	-0.6995997	0.0000518
0.768	-0.0025803	-1.8230246	-0.7039677	0.0000520
0.770	-0.0025491	-1.8290629	-0.7083502	0.0000522
0.773	-0.0025109	-1.8350196	-0.7127471	0.0000523
0.775	-0.0024142	-1.8408173	-0.7171581	0.0000525
0.778	-0.0023011	-1.8463681	-0.7215827	0.0000527
0.780	-0.0021749	-1.8516372	-0.7260203	0.0000528
0.782	-0.0020084	-1.8565618	-0.7304701	0.0000529
0.785	-0.0018514	-1.8611057	-0.7349313	0.0000530
0.787	-0.0016413	-1.8652173	-0.7394029	0.0000531
0.790	-0.0013918	-1.8687879	-0.7438837	0.0000531
0.792	-0.0011408	-1.8717693	-0.7483724	0.0000532
0.794	-0.0008878	-1.8741573	-0.7528675	0.0000532
0.797	-0.0006382	-1.8759537	-0.7573676	0.0000532
